          %Evm          Svm            E11          E22          E33          E23          E13          E12         SCAU11       SCAU22       SCAU33       SCAU23       SCAU13       SCAU12      TEMP
  0.00000E+00  0.33762E+03    0.00000E+00  0.00000E+00  0.00000E+00  0.00000E+00  0.00000E+00  0.00000E+00    0.00000E+00 -0.97645E+02 -0.37565E+03 -0.23638E+01 -0.14352E+01 -0.93259E+00
  0.11126E-02  0.33866E+03    0.10000E-02  0.97578E-18 -0.10000E-02  0.00000E+00  0.00000E+00  0.00000E+00    0.00000E+00 -0.97626E+02 -0.37671E+03 -0.24287E+01 -0.14618E+01 -0.10036E+01
  0.22250E-02  0.33978E+03    0.20000E-02  0.17347E-17 -0.20000E-02  0.00000E+00  0.00000E+00  0.00000E+00    0.00000E+00 -0.98053E+02 -0.37798E+03 -0.24972E+01 -0.14154E+01 -0.10078E+01
  0.33374E-02  0.34086E+03    0.30000E-02  0.29273E-17 -0.30000E-02  0.00000E+00  0.00000E+00  0.00000E+00    0.00000E+00 -0.98413E+02 -0.37920E+03 -0.25280E+01 -0.13925E+01 -0.10326E+01
  0.44499E-02  0.34197E+03    0.40000E-02  0.47705E-17 -0.40000E-02  0.00000E+00  0.00000E+00  0.00000E+00    0.00000E+00 -0.98763E+02 -0.38044E+03 -0.25595E+01 -0.13630E+01 -0.10535E+01
  0.55624E-02  0.34305E+03    0.50000E-02  0.66136E-17 -0.50000E-02  0.00000E+00  0.00000E+00  0.00000E+00    0.00000E+00 -0.99128E+02 -0.38166E+03 -0.25913E+01 -0.13412E+01 -0.10789E+01
  0.66749E-02  0.34414E+03    0.60000E-02  0.87820E-17 -0.60000E-02  0.00000E+00  0.00000E+00  0.00000E+00    0.00000E+00 -0.99492E+02 -0.38288E+03 -0.26219E+01 -0.13151E+01 -0.11036E+01
  0.77875E-02  0.34522E+03    0.70000E-02  0.11276E-16 -0.70000E-02  0.00000E+00  0.00000E+00  0.00000E+00    0.00000E+00 -0.99851E+02 -0.38409E+03 -0.26469E+01 -0.12936E+01 -0.11263E+01
  0.89001E-02  0.34629E+03    0.80000E-02  0.13986E-16 -0.80000E-02  0.00000E+00  0.00000E+00  0.00000E+00    0.00000E+00 -0.10021E+03 -0.38530E+03 -0.26766E+01 -0.12677E+01 -0.11459E+01
  0.10013E-01  0.34734E+03    0.90000E-02  0.16588E-16 -0.90000E-02  0.00000E+00  0.00000E+00  0.00000E+00    0.00000E+00 -0.10058E+03 -0.38649E+03 -0.27049E+01 -0.12417E+01 -0.11682E+01
  0.11125E-01  0.34840E+03    0.10000E-01  0.19407E-16 -0.10000E-01  0.00000E+00  0.00000E+00  0.00000E+00    0.00000E+00 -0.10094E+03 -0.38768E+03 -0.27348E+01 -0.12158E+01 -0.11899E+01
  0.12238E-01  0.34944E+03    0.11000E-01  0.22768E-16 -0.11000E-01  0.00000E+00  0.00000E+00  0.00000E+00    0.00000E+00 -0.10130E+03 -0.38885E+03 -0.27605E+01 -0.11903E+01 -0.12095E+01
  0.13351E-01  0.35047E+03    0.12000E-01  0.26346E-16 -0.12000E-01  0.00000E+00  0.00000E+00  0.00000E+00    0.00000E+00 -0.10166E+03 -0.39001E+03 -0.27867E+01 -0.11638E+01 -0.12285E+01
  0.14464E-01  0.35150E+03    0.13000E-01  0.30249E-16 -0.13000E-01  0.00000E+00  0.00000E+00  0.00000E+00    0.00000E+00 -0.10201E+03 -0.39118E+03 -0.28114E+01 -0.11361E+01 -0.12478E+01
  0.15577E-01  0.35252E+03    0.14000E-01  0.34369E-16 -0.14000E-01  0.00000E+00  0.00000E+00  0.00000E+00    0.00000E+00 -0.10237E+03 -0.39232E+03 -0.28363E+01 -0.11088E+01 -0.12641E+01
  0.16690E-01  0.35352E+03    0.15000E-01  0.39031E-16 -0.15000E-01  0.00000E+00  0.00000E+00  0.00000E+00    0.00000E+00 -0.10272E+03 -0.39346E+03 -0.28600E+01 -0.10817E+01 -0.12795E+01
  0.17803E-01  0.35452E+03    0.16000E-01  0.44235E-16 -0.16000E-01  0.00000E+00  0.00000E+00  0.00000E+00    0.00000E+00 -0.10308E+03 -0.39459E+03 -0.28830E+01 -0.10535E+01 -0.12939E+01
  0.18916E-01  0.35551E+03    0.17000E-01  0.49548E-16 -0.17000E-01  0.00000E+00  0.00000E+00  0.00000E+00    0.00000E+00 -0.10343E+03 -0.39571E+03 -0.29049E+01 -0.10247E+01 -0.13075E+01
  0.20029E-01  0.35649E+03    0.18000E-01  0.54752E-16 -0.18000E-01  0.00000E+00  0.00000E+00  0.00000E+00    0.00000E+00 -0.10378E+03 -0.39682E+03 -0.29257E+01 -0.99566E+00 -0.13204E+01
  0.21142E-01  0.35747E+03    0.19000E-01  0.60607E-16 -0.19000E-01  0.00000E+00  0.00000E+00  0.00000E+00    0.00000E+00 -0.10412E+03 -0.39792E+03 -0.29457E+01 -0.96661E+00 -0.13328E+01
  0.22255E-01  0.35843E+03    0.20000E-01  0.66787E-16 -0.20000E-01  0.00000E+00  0.00000E+00  0.00000E+00    0.00000E+00 -0.10447E+03 -0.39901E+03 -0.29649E+01 -0.93796E+00 -0.13449E+01
  0.23368E-01  0.35938E+03    0.21000E-01  0.72858E-16 -0.21000E-01  0.00000E+00  0.00000E+00  0.00000E+00    0.00000E+00 -0.10481E+03 -0.40009E+03 -0.29833E+01 -0.90996E+00 -0.13566E+01
  0.24481E-01  0.36033E+03    0.22000E-01  0.79147E-16 -0.22000E-01  0.00000E+00  0.00000E+00  0.00000E+00    0.00000E+00 -0.10515E+03 -0.40116E+03 -0.30014E+01 -0.88330E+00 -0.13682E+01
  0.25595E-01  0.36127E+03    0.23000E-01  0.85977E-16 -0.23000E-01  0.00000E+00  0.00000E+00  0.00000E+00    0.00000E+00 -0.10549E+03 -0.40222E+03 -0.30180E+01 -0.85678E+00 -0.13786E+01
  0.26708E-01  0.36220E+03    0.24000E-01  0.93241E-16 -0.24000E-01  0.00000E+00  0.00000E+00  0.00000E+00    0.00000E+00 -0.10583E+03 -0.40327E+03 -0.30342E+01 -0.83084E+00 -0.13906E+01
  0.27821E-01  0.36312E+03    0.25000E-01  0.10061E-15 -0.25000E-01  0.00000E+00  0.00000E+00  0.00000E+00    0.00000E+00 -0.10617E+03 -0.40432E+03 -0.30489E+01 -0.80509E+00 -0.14005E+01
  0.28935E-01  0.36403E+03    0.26000E-01  0.10788E-15 -0.26000E-01  0.00000E+00  0.00000E+00  0.00000E+00    0.00000E+00 -0.10650E+03 -0.40535E+03 -0.30627E+01 -0.78014E+00 -0.14105E+01
  0.30048E-01  0.36494E+03    0.27000E-01  0.11547E-15 -0.27000E-01  0.00000E+00  0.00000E+00  0.00000E+00    0.00000E+00 -0.10683E+03 -0.40638E+03 -0.30749E+01 -0.75073E+00 -0.14215E+01
  0.31162E-01  0.36583E+03    0.28000E-01  0.12306E-15 -0.28000E-01  0.00000E+00  0.00000E+00  0.00000E+00    0.00000E+00 -0.10716E+03 -0.40739E+03 -0.30880E+01 -0.73013E+00 -0.14299E+01
  0.32276E-01  0.36672E+03    0.29000E-01  0.13086E-15 -0.29000E-01  0.00000E+00  0.00000E+00  0.00000E+00    0.00000E+00 -0.10749E+03 -0.40840E+03 -0.31000E+01 -0.70541E+00 -0.14385E+01
  0.33389E-01  0.36760E+03    0.30000E-01  0.13932E-15 -0.30000E-01  0.00000E+00  0.00000E+00  0.00000E+00    0.00000E+00 -0.10782E+03 -0.40940E+03 -0.31107E+01 -0.68087E+00 -0.14450E+01
  0.34503E-01  0.36847E+03    0.31000E-01  0.14778E-15 -0.31000E-01  0.00000E+00  0.00000E+00  0.00000E+00    0.00000E+00 -0.10814E+03 -0.41039E+03 -0.31217E+01 -0.65690E+00 -0.14537E+01
  0.35617E-01  0.36934E+03    0.32000E-01  0.15634E-15 -0.32000E-01  0.00000E+00  0.00000E+00  0.00000E+00    0.00000E+00 -0.10847E+03 -0.41137E+03 -0.31315E+01 -0.63330E+00 -0.14615E+01
  0.36731E-01  0.37019E+03    0.33000E-01  0.16469E-15 -0.33000E-01  0.00000E+00  0.00000E+00  0.00000E+00    0.00000E+00 -0.10879E+03 -0.41235E+03 -0.31409E+01 -0.61007E+00 -0.14690E+01
  0.37844E-01  0.37104E+03    0.34000E-01  0.17304E-15 -0.34000E-01  0.00000E+00  0.00000E+00  0.00000E+00    0.00000E+00 -0.10911E+03 -0.41331E+03 -0.31494E+01 -0.58708E+00 -0.14762E+01
  0.38958E-01  0.37188E+03    0.35000E-01  0.18160E-15 -0.35000E-01  0.00000E+00  0.00000E+00  0.00000E+00    0.00000E+00 -0.10944E+03 -0.41427E+03 -0.31576E+01 -0.56404E+00 -0.14833E+01
  0.40072E-01  0.37273E+03    0.36000E-01  0.19006E-15 -0.36000E-01  0.00000E+00  0.00000E+00  0.00000E+00    0.00000E+00 -0.10975E+03 -0.41523E+03 -0.31634E+01 -0.54077E+00 -0.14854E+01
  0.41186E-01  0.37355E+03    0.37000E-01  0.19873E-15 -0.37000E-01  0.00000E+00  0.00000E+00  0.00000E+00    0.00000E+00 -0.11007E+03 -0.41617E+03 -0.31710E+01 -0.51639E+00 -0.14933E+01
  0.42300E-01  0.37438E+03    0.38000E-01  0.20784E-15 -0.38000E-01  0.00000E+00  0.00000E+00  0.00000E+00    0.00000E+00 -0.11039E+03 -0.41711E+03 -0.31777E+01 -0.49225E+00 -0.14994E+01
  0.43415E-01  0.37519E+03    0.39000E-01  0.21749E-15 -0.39000E-01  0.00000E+00  0.00000E+00  0.00000E+00    0.00000E+00 -0.11071E+03 -0.41804E+03 -0.31841E+01 -0.46772E+00 -0.15055E+01
  0.44529E-01  0.37600E+03    0.40000E-01  0.22757E-15 -0.40000E-01  0.00000E+00  0.00000E+00  0.00000E+00    0.00000E+00 -0.11103E+03 -0.41896E+03 -0.31901E+01 -0.44286E+00 -0.15114E+01
  0.45643E-01  0.37681E+03    0.41000E-01  0.23777E-15 -0.41000E-01  0.00000E+00  0.00000E+00  0.00000E+00    0.00000E+00 -0.11134E+03 -0.41988E+03 -0.31958E+01 -0.41760E+00 -0.15172E+01
  0.46757E-01  0.37760E+03    0.42000E-01  0.24796E-15 -0.42000E-01  0.00000E+00  0.00000E+00  0.00000E+00    0.00000E+00 -0.11166E+03 -0.42079E+03 -0.32012E+01 -0.39208E+00 -0.15229E+01
  0.47872E-01  0.37839E+03    0.43000E-01  0.25793E-15 -0.43000E-01  0.00000E+00  0.00000E+00  0.00000E+00    0.00000E+00 -0.11197E+03 -0.42169E+03 -0.32064E+01 -0.36640E+00 -0.15286E+01
  0.48986E-01  0.37918E+03    0.44000E-01  0.26856E-15 -0.44000E-01  0.00000E+00  0.00000E+00  0.00000E+00    0.00000E+00 -0.11228E+03 -0.42259E+03 -0.32114E+01 -0.34066E+00 -0.15341E+01
  0.50101E-01  0.37996E+03    0.45000E-01  0.27951E-15 -0.45000E-01  0.00000E+00  0.00000E+00  0.00000E+00    0.00000E+00 -0.11259E+03 -0.42348E+03 -0.32162E+01 -0.31501E+00 -0.15396E+01
  0.51215E-01  0.38077E+03    0.46000E-01  0.29111E-15 -0.46000E-01  0.00000E+00  0.00000E+00  0.00000E+00    0.00000E+00 -0.11292E+03 -0.42440E+03 -0.32220E+01 -0.28958E+00 -0.15447E+01
  0.52330E-01  0.38189E+03    0.47000E-01  0.30271E-15 -0.47000E-01  0.00000E+00  0.00000E+00  0.00000E+00    0.00000E+00 -0.11326E+03 -0.42566E+03 -0.32309E+01 -0.22963E+00 -0.15540E+01
  0.53444E-01  0.38263E+03    0.48000E-01  0.31442E-15 -0.48000E-01  0.00000E+00  0.00000E+00  0.00000E+00    0.00000E+00 -0.11354E+03 -0.42650E+03 -0.32346E+01 -0.19647E+00 -0.15606E+01
  0.54559E-01  0.38339E+03    0.49000E-01  0.32613E-15 -0.49000E-01  0.00000E+00  0.00000E+00  0.00000E+00    0.00000E+00 -0.11385E+03 -0.42736E+03 -0.32385E+01 -0.17225E+00 -0.15664E+01
  0.55674E-01  0.38414E+03    0.50000E-01  0.33838E-15 -0.50000E-01  0.00000E+00  0.00000E+00  0.00000E+00    0.00000E+00 -0.11415E+03 -0.42822E+03 -0.32425E+01 -0.14819E+00 -0.15723E+01
  0.56788E-01  0.38488E+03    0.51000E-01  0.35074E-15 -0.51000E-01  0.00000E+00  0.00000E+00  0.00000E+00    0.00000E+00 -0.11446E+03 -0.42907E+03 -0.32462E+01 -0.12442E+00 -0.15783E+01
  0.57903E-01  0.38562E+03    0.52000E-01  0.36342E-15 -0.52000E-01  0.00000E+00  0.00000E+00  0.00000E+00    0.00000E+00 -0.11476E+03 -0.42992E+03 -0.32497E+01 -0.10046E+00 -0.15846E+01
  0.59018E-01  0.38636E+03    0.53000E-01  0.37643E-15 -0.53000E-01  0.00000E+00  0.00000E+00  0.00000E+00    0.00000E+00 -0.11506E+03 -0.43076E+03 -0.32535E+01 -0.77425E-01 -0.15905E+01
  0.60133E-01  0.38709E+03    0.54000E-01  0.38945E-15 -0.54000E-01  0.00000E+00  0.00000E+00  0.00000E+00    0.00000E+00 -0.11536E+03 -0.43160E+03 -0.32572E+01 -0.55220E-01 -0.15965E+01
  0.61248E-01  0.38781E+03    0.55000E-01  0.40289E-15 -0.55000E-01  0.00000E+00  0.00000E+00  0.00000E+00    0.00000E+00 -0.11566E+03 -0.43243E+03 -0.32607E+01 -0.34051E-01 -0.16024E+01
  0.62363E-01  0.38854E+03    0.56000E-01  0.41655E-15 -0.56000E-01  0.00000E+00  0.00000E+00  0.00000E+00    0.00000E+00 -0.11595E+03 -0.43326E+03 -0.32642E+01 -0.13644E-01 -0.16084E+01
  0.63478E-01  0.38925E+03    0.57000E-01  0.43043E-15 -0.57000E-01  0.00000E+00  0.00000E+00  0.00000E+00    0.00000E+00 -0.11625E+03 -0.43408E+03 -0.32678E+01  0.59109E-02 -0.16143E+01
  0.64593E-01  0.38997E+03    0.58000E-01  0.44431E-15 -0.58000E-01  0.00000E+00  0.00000E+00  0.00000E+00    0.00000E+00 -0.11654E+03 -0.43490E+03 -0.32715E+01  0.24591E-01 -0.16203E+01
  0.65709E-01  0.39067E+03    0.59000E-01  0.45851E-15 -0.59000E-01  0.00000E+00  0.00000E+00  0.00000E+00    0.00000E+00 -0.11684E+03 -0.43571E+03 -0.32751E+01  0.42781E-01 -0.16264E+01
  0.66824E-01  0.39138E+03    0.60000E-01  0.47315E-15 -0.60000E-01  0.00000E+00  0.00000E+00  0.00000E+00    0.00000E+00 -0.11713E+03 -0.43652E+03 -0.32785E+01  0.60490E-01 -0.16325E+01
  0.67939E-01  0.39208E+03    0.61000E-01  0.48800E-15 -0.61000E-01  0.00000E+00  0.00000E+00  0.00000E+00    0.00000E+00 -0.11742E+03 -0.43732E+03 -0.32817E+01  0.77846E-01 -0.16386E+01
  0.69055E-01  0.39277E+03    0.62000E-01  0.50285E-15 -0.62000E-01  0.00000E+00  0.00000E+00  0.00000E+00    0.00000E+00 -0.11771E+03 -0.43812E+03 -0.32844E+01  0.95085E-01 -0.16445E+01
  0.70170E-01  0.39347E+03    0.63000E-01  0.51771E-15 -0.63000E-01  0.00000E+00  0.00000E+00  0.00000E+00    0.00000E+00 -0.11800E+03 -0.43891E+03 -0.32869E+01  0.11225E+00 -0.16502E+01
  0.71286E-01  0.39416E+03    0.64000E-01  0.53256E-15 -0.64000E-01  0.00000E+00  0.00000E+00  0.00000E+00    0.00000E+00 -0.11828E+03 -0.43970E+03 -0.32893E+01  0.12933E+00 -0.16558E+01
  0.72401E-01  0.39484E+03    0.65000E-01  0.54741E-15 -0.65000E-01  0.00000E+00  0.00000E+00  0.00000E+00    0.00000E+00 -0.11857E+03 -0.44049E+03 -0.32913E+01  0.14646E+00 -0.16610E+01
  0.73517E-01  0.39552E+03    0.66000E-01  0.56238E-15 -0.66000E-01  0.00000E+00  0.00000E+00  0.00000E+00    0.00000E+00 -0.11885E+03 -0.44127E+03 -0.32931E+01  0.16357E+00 -0.16658E+01
  0.74632E-01  0.39620E+03    0.67000E-01  0.57777E-15 -0.67000E-01  0.00000E+00  0.00000E+00  0.00000E+00    0.00000E+00 -0.11914E+03 -0.44204E+03 -0.32947E+01  0.18058E+00 -0.16705E+01
  0.75748E-01  0.39687E+03    0.68000E-01  0.59317E-15 -0.68000E-01  0.00000E+00  0.00000E+00  0.00000E+00    0.00000E+00 -0.11942E+03 -0.44282E+03 -0.32958E+01  0.19746E+00 -0.16745E+01
  0.76864E-01  0.39754E+03    0.69000E-01  0.60900E-15 -0.69000E-01  0.00000E+00  0.00000E+00  0.00000E+00    0.00000E+00 -0.11970E+03 -0.44358E+03 -0.32969E+01  0.21416E+00 -0.16782E+01
  0.77980E-01  0.39821E+03    0.70000E-01  0.62504E-15 -0.70000E-01  0.00000E+00  0.00000E+00  0.00000E+00    0.00000E+00 -0.11998E+03 -0.44435E+03 -0.32976E+01  0.23066E+00 -0.16814E+01
  0.79096E-01  0.39887E+03    0.71000E-01  0.64174E-15 -0.71000E-01  0.00000E+00  0.00000E+00  0.00000E+00    0.00000E+00 -0.12026E+03 -0.44511E+03 -0.32981E+01  0.24695E+00 -0.16842E+01
  0.80211E-01  0.39953E+03    0.72000E-01  0.65887E-15 -0.72000E-01  0.00000E+00  0.00000E+00  0.00000E+00    0.00000E+00 -0.12054E+03 -0.44587E+03 -0.32982E+01  0.26307E+00 -0.16864E+01
  0.81327E-01  0.40019E+03    0.73000E-01  0.67600E-15 -0.73000E-01  0.00000E+00  0.00000E+00  0.00000E+00    0.00000E+00 -0.12081E+03 -0.44662E+03 -0.32977E+01  0.27916E+00 -0.16882E+01
  0.82443E-01  0.40084E+03    0.74000E-01  0.69356E-15 -0.74000E-01  0.00000E+00  0.00000E+00  0.00000E+00    0.00000E+00 -0.12109E+03 -0.44737E+03 -0.32961E+01  0.29519E+00 -0.16894E+01
  0.83560E-01  0.40149E+03    0.75000E-01  0.71135E-15 -0.75000E-01  0.00000E+00  0.00000E+00  0.00000E+00    0.00000E+00 -0.12137E+03 -0.44811E+03 -0.32950E+01  0.31097E+00 -0.16900E+01
  0.84676E-01  0.40213E+03    0.76000E-01  0.72902E-15 -0.76000E-01  0.00000E+00  0.00000E+00  0.00000E+00    0.00000E+00 -0.12164E+03 -0.44886E+03 -0.32964E+01  0.32621E+00 -0.16893E+01
  0.85792E-01  0.40278E+03    0.77000E-01  0.74680E-15 -0.77000E-01  0.00000E+00  0.00000E+00  0.00000E+00    0.00000E+00 -0.12193E+03 -0.44961E+03 -0.32997E+01  0.33085E+00 -0.16980E+01
  0.86908E-01  0.40342E+03    0.78000E-01  0.76480E-15 -0.78000E-01  0.00000E+00  0.00000E+00  0.00000E+00    0.00000E+00 -0.12220E+03 -0.45034E+03 -0.32954E+01  0.35471E+00 -0.16912E+01
  0.88024E-01  0.40407E+03    0.79000E-01  0.78323E-15 -0.79000E-01  0.00000E+00  0.00000E+00  0.00000E+00    0.00000E+00 -0.12249E+03 -0.45109E+03 -0.32978E+01  0.37357E+00 -0.16853E+01
  0.89141E-01  0.40470E+03    0.80000E-01  0.80188E-15 -0.80000E-01  0.00000E+00  0.00000E+00  0.00000E+00    0.00000E+00 -0.12275E+03 -0.45181E+03 -0.32921E+01  0.38745E+00 -0.16875E+01
  0.90257E-01  0.40533E+03    0.81000E-01  0.82042E-15 -0.81000E-01  0.00000E+00  0.00000E+00  0.00000E+00    0.00000E+00 -0.12302E+03 -0.45253E+03 -0.32922E+01  0.40404E+00 -0.16844E+01
  0.91374E-01  0.40596E+03    0.82000E-01  0.83906E-15 -0.82000E-01  0.00000E+00  0.00000E+00  0.00000E+00    0.00000E+00 -0.12329E+03 -0.45325E+03 -0.32928E+01  0.41939E+00 -0.16809E+01
  0.92490E-01  0.40660E+03    0.83000E-01  0.85760E-15 -0.83000E-01  0.00000E+00  0.00000E+00  0.00000E+00    0.00000E+00 -0.12360E+03 -0.45400E+03 -0.32997E+01  0.44127E+00 -0.17052E+01
  0.93607E-01  0.40723E+03    0.84000E-01  0.87625E-15 -0.84000E-01  0.00000E+00  0.00000E+00  0.00000E+00    0.00000E+00 -0.12385E+03 -0.45472E+03 -0.32902E+01  0.45221E+00 -0.16880E+01
  0.94723E-01  0.40784E+03    0.85000E-01  0.89523E-15 -0.85000E-01  0.00000E+00  0.00000E+00  0.00000E+00    0.00000E+00 -0.12412E+03 -0.45543E+03 -0.32907E+01  0.46922E+00 -0.16843E+01
  0.95840E-01  0.40846E+03    0.86000E-01  0.91431E-15 -0.86000E-01  0.00000E+00  0.00000E+00  0.00000E+00    0.00000E+00 -0.12439E+03 -0.45614E+03 -0.32892E+01  0.48508E+00 -0.16805E+01
  0.96957E-01  0.40907E+03    0.87000E-01  0.93361E-15 -0.87000E-01  0.00000E+00  0.00000E+00  0.00000E+00    0.00000E+00 -0.12465E+03 -0.45684E+03 -0.32879E+01  0.50104E+00 -0.16765E+01
  0.98074E-01  0.40968E+03    0.88000E-01  0.95291E-15 -0.88000E-01  0.00000E+00  0.00000E+00  0.00000E+00    0.00000E+00 -0.12492E+03 -0.45755E+03 -0.32864E+01  0.51673E+00 -0.16714E+01
  0.99190E-01  0.41029E+03    0.89000E-01  0.97264E-15 -0.89000E-01  0.00000E+00  0.00000E+00  0.00000E+00    0.00000E+00 -0.12518E+03 -0.45825E+03 -0.32856E+01  0.53061E+00 -0.16725E+01
  0.10031E+00  0.41090E+03    0.90000E-01  0.99291E-15 -0.90000E-01  0.00000E+00  0.00000E+00  0.00000E+00    0.00000E+00 -0.12545E+03 -0.45895E+03 -0.32844E+01  0.54795E+00 -0.16654E+01
  0.10142E+00  0.41150E+03    0.91000E-01  0.10134E-14 -0.91000E-01  0.00000E+00  0.00000E+00  0.00000E+00    0.00000E+00 -0.12571E+03 -0.45964E+03 -0.32832E+01  0.56323E+00 -0.16613E+01
  0.10254E+00  0.41210E+03    0.92000E-01  0.10340E-14 -0.92000E-01  0.00000E+00  0.00000E+00  0.00000E+00    0.00000E+00 -0.12598E+03 -0.46033E+03 -0.32821E+01  0.57841E+00 -0.16568E+01
  0.10366E+00  0.41269E+03    0.93000E-01  0.10551E-14 -0.93000E-01  0.00000E+00  0.00000E+00  0.00000E+00    0.00000E+00 -0.12624E+03 -0.46102E+03 -0.32811E+01  0.59329E+00 -0.16523E+01
  0.10478E+00  0.41329E+03    0.94000E-01  0.10764E-14 -0.94000E-01  0.00000E+00  0.00000E+00  0.00000E+00    0.00000E+00 -0.12650E+03 -0.46170E+03 -0.32802E+01  0.60787E+00 -0.16480E+01
  0.10589E+00  0.41388E+03    0.95000E-01  0.10978E-14 -0.95000E-01  0.00000E+00  0.00000E+00  0.00000E+00    0.00000E+00 -0.12676E+03 -0.46238E+03 -0.32796E+01  0.62206E+00 -0.16436E+01
  0.10701E+00  0.41447E+03    0.96000E-01  0.11192E-14 -0.96000E-01  0.00000E+00  0.00000E+00  0.00000E+00    0.00000E+00 -0.12703E+03 -0.46306E+03 -0.32791E+01  0.63581E+00 -0.16394E+01
  0.10813E+00  0.41506E+03    0.97000E-01  0.11412E-14 -0.97000E-01  0.00000E+00  0.00000E+00  0.00000E+00    0.00000E+00 -0.12729E+03 -0.46374E+03 -0.32788E+01  0.64914E+00 -0.16352E+01
  0.10924E+00  0.41565E+03    0.98000E-01  0.11637E-14 -0.98000E-01  0.00000E+00  0.00000E+00  0.00000E+00    0.00000E+00 -0.12757E+03 -0.46443E+03 -0.32842E+01  0.65949E+00 -0.16407E+01
  0.11036E+00  0.41623E+03    0.99000E-01  0.11862E-14 -0.99000E-01  0.00000E+00  0.00000E+00  0.00000E+00    0.00000E+00 -0.12782E+03 -0.46510E+03 -0.32803E+01  0.67349E+00 -0.16307E+01
  0.11148E+00  0.41681E+03    0.10000E+00  0.12089E-14 -0.10000E+00  0.00000E+00  0.00000E+00  0.00000E+00    0.00000E+00 -0.12808E+03 -0.46577E+03 -0.32811E+01  0.68510E+00 -0.16277E+01
  0.11260E+00  0.41739E+03    0.10100E+00  0.12321E-14 -0.10100E+00  0.00000E+00  0.00000E+00  0.00000E+00    0.00000E+00 -0.12834E+03 -0.46643E+03 -0.32819E+01  0.69606E+00 -0.16241E+01
  0.11371E+00  0.41796E+03    0.10200E+00  0.12555E-14 -0.10200E+00  0.00000E+00  0.00000E+00  0.00000E+00    0.00000E+00 -0.12860E+03 -0.46710E+03 -0.32831E+01  0.70644E+00 -0.16208E+01
  0.11483E+00  0.41853E+03    0.10300E+00  0.12793E-14 -0.10300E+00  0.00000E+00  0.00000E+00  0.00000E+00    0.00000E+00 -0.12885E+03 -0.46776E+03 -0.32846E+01  0.71619E+00 -0.16177E+01
  0.11595E+00  0.41910E+03    0.10400E+00  0.13031E-14 -0.10400E+00  0.00000E+00  0.00000E+00  0.00000E+00    0.00000E+00 -0.12911E+03 -0.46841E+03 -0.32863E+01  0.72534E+00 -0.16147E+01
