          %Evm          Svm            E11          E22          E33          E23          E13          E12         SCAU11       SCAU22       SCAU33       SCAU23       SCAU13       SCAU12      TEMP
  0.00000E+00  0.28383E+03    0.00000E+00  0.00000E+00  0.00000E+00  0.00000E+00  0.00000E+00  0.00000E+00    0.00000E+00  0.00000E+00 -0.28372E+03  0.42539E+01  0.18326E+01  0.53826E+00
  0.99960E-03  0.28448E+03    0.69827E-03  0.30173E-03 -0.10000E-02  0.00000E+00  0.00000E+00  0.00000E+00    0.00000E+00  0.00000E+00 -0.28437E+03  0.42528E+01  0.17851E+01  0.54759E+00
  0.19992E-02  0.28529E+03    0.13990E-02  0.60102E-03 -0.20000E-02  0.00000E+00  0.00000E+00  0.00000E+00    0.00000E+00  0.00000E+00 -0.28518E+03  0.41883E+01  0.16740E+01  0.52119E+00
  0.29988E-02  0.28638E+03    0.20996E-02  0.90043E-03 -0.30000E-02  0.00000E+00  0.00000E+00  0.00000E+00    0.00000E+00  0.00000E+00 -0.28627E+03  0.41936E+01  0.16994E+01  0.54762E+00
  0.39984E-02  0.28721E+03    0.27994E-02  0.12006E-02 -0.40000E-02  0.00000E+00  0.00000E+00  0.00000E+00    0.00000E+00  0.00000E+00 -0.28711E+03  0.41528E+01  0.16280E+01  0.52802E+00
  0.49981E-02  0.28829E+03    0.34983E-02  0.15017E-02 -0.50000E-02  0.00000E+00  0.00000E+00  0.00000E+00    0.00000E+00  0.00000E+00 -0.28819E+03  0.41419E+01  0.16192E+01  0.53295E+00
  0.59977E-02  0.28908E+03    0.41960E-02  0.18040E-02 -0.60000E-02  0.00000E+00  0.00000E+00  0.00000E+00    0.00000E+00  0.00000E+00 -0.28898E+03  0.41054E+01  0.15693E+01  0.51809E+00
  0.69974E-02  0.29016E+03    0.48924E-02  0.21076E-02 -0.70000E-02  0.00000E+00  0.00000E+00  0.00000E+00    0.00000E+00  0.00000E+00 -0.29006E+03  0.40965E+01  0.15667E+01  0.52282E+00
  0.79970E-02  0.29094E+03    0.55875E-02  0.24125E-02 -0.80000E-02  0.00000E+00  0.00000E+00  0.00000E+00    0.00000E+00  0.00000E+00 -0.29084E+03  0.40620E+01  0.15344E+01  0.50764E+00
  0.89967E-02  0.29207E+03    0.62814E-02  0.27186E-02 -0.90000E-02  0.00000E+00  0.00000E+00  0.00000E+00    0.00000E+00  0.00000E+00 -0.29197E+03  0.40605E+01  0.15419E+01  0.51875E+00
  0.99963E-02  0.29300E+03    0.69738E-02  0.30262E-02 -0.10000E-01  0.00000E+00  0.00000E+00  0.00000E+00    0.00000E+00  0.00000E+00 -0.29290E+03  0.40388E+01  0.15295E+01  0.51231E+00
  0.10996E-01  0.29390E+03    0.76648E-02  0.33352E-02 -0.11000E-01  0.00000E+00  0.00000E+00  0.00000E+00    0.00000E+00  0.00000E+00 -0.29381E+03  0.40175E+01  0.15191E+01  0.50630E+00
  0.11996E-01  0.29480E+03    0.83545E-02  0.36455E-02 -0.12000E-01  0.00000E+00  0.00000E+00  0.00000E+00    0.00000E+00  0.00000E+00 -0.29470E+03  0.39963E+01  0.15097E+01  0.50044E+00
  0.12995E-01  0.29554E+03    0.90428E-02  0.39572E-02 -0.13000E-01  0.00000E+00  0.00000E+00  0.00000E+00    0.00000E+00  0.00000E+00 -0.29545E+03  0.39695E+01  0.14964E+01  0.49288E+00
  0.13995E-01  0.29644E+03    0.97295E-02  0.42705E-02 -0.14000E-01  0.00000E+00  0.00000E+00  0.00000E+00    0.00000E+00  0.00000E+00 -0.29635E+03  0.39496E+01  0.14885E+01  0.48786E+00
  0.14995E-01  0.29734E+03    0.10415E-01  0.45852E-02 -0.15000E-01  0.00000E+00  0.00000E+00  0.00000E+00    0.00000E+00  0.00000E+00 -0.29725E+03  0.39374E+01  0.14777E+01  0.48582E+00
  0.15994E-01  0.29823E+03    0.11099E-01  0.49015E-02 -0.16000E-01  0.00000E+00  0.00000E+00  0.00000E+00    0.00000E+00  0.00000E+00 -0.29814E+03  0.39154E+01  0.14686E+01  0.48031E+00
  0.16994E-01  0.29910E+03    0.11781E-01  0.52194E-02 -0.17000E-01  0.00000E+00  0.00000E+00  0.00000E+00    0.00000E+00  0.00000E+00 -0.29902E+03  0.38957E+01  0.14591E+01  0.47483E+00
  0.17994E-01  0.29997E+03    0.12461E-01  0.55389E-02 -0.18000E-01  0.00000E+00  0.00000E+00  0.00000E+00    0.00000E+00  0.00000E+00 -0.29989E+03  0.38764E+01  0.14491E+01  0.46944E+00
  0.18994E-01  0.30084E+03    0.13140E-01  0.58600E-02 -0.19000E-01  0.00000E+00  0.00000E+00  0.00000E+00    0.00000E+00  0.00000E+00 -0.30075E+03  0.38575E+01  0.14386E+01  0.46397E+00
  0.19993E-01  0.30164E+03    0.13817E-01  0.61827E-02 -0.20000E-01  0.00000E+00  0.00000E+00  0.00000E+00    0.00000E+00  0.00000E+00 -0.30156E+03  0.38418E+01  0.14190E+01  0.43057E+00
  0.20993E-01  0.30278E+03    0.14493E-01  0.65071E-02 -0.21000E-01  0.00000E+00  0.00000E+00  0.00000E+00    0.00000E+00  0.00000E+00 -0.30270E+03  0.38286E+01  0.14120E+01  0.43275E+00
  0.21993E-01  0.30345E+03    0.15167E-01  0.68335E-02 -0.22000E-01  0.00000E+00  0.00000E+00  0.00000E+00    0.00000E+00  0.00000E+00 -0.30337E+03  0.38116E+01  0.14055E+01  0.43463E+00
  0.22992E-01  0.30444E+03    0.15838E-01  0.71616E-02 -0.23000E-01  0.00000E+00  0.00000E+00  0.00000E+00    0.00000E+00  0.00000E+00 -0.30435E+03  0.38023E+01  0.14008E+01  0.43058E+00
  0.23992E-01  0.30514E+03    0.16509E-01  0.74914E-02 -0.24000E-01  0.00000E+00  0.00000E+00  0.00000E+00    0.00000E+00  0.00000E+00 -0.30506E+03  0.37818E+01  0.13830E+01  0.42153E+00
  0.24992E-01  0.30613E+03    0.17177E-01  0.78230E-02 -0.25000E-01  0.00000E+00  0.00000E+00  0.00000E+00    0.00000E+00  0.00000E+00 -0.30605E+03  0.37710E+01  0.13793E+01  0.42149E+00
  0.25992E-01  0.30681E+03    0.17844E-01  0.81563E-02 -0.26000E-01  0.00000E+00  0.00000E+00  0.00000E+00    0.00000E+00  0.00000E+00 -0.30674E+03  0.37525E+01  0.13612E+01  0.41158E+00
  0.26991E-01  0.30778E+03    0.18509E-01  0.84914E-02 -0.27000E-01  0.00000E+00  0.00000E+00  0.00000E+00    0.00000E+00  0.00000E+00 -0.30770E+03  0.37440E+01  0.13554E+01  0.40715E+00
  0.27991E-01  0.30846E+03    0.19172E-01  0.88283E-02 -0.28000E-01  0.00000E+00  0.00000E+00  0.00000E+00    0.00000E+00  0.00000E+00 -0.30838E+03  0.37269E+01  0.13368E+01  0.39756E+00
  0.28991E-01  0.30941E+03    0.19833E-01  0.91670E-02 -0.29000E-01  0.00000E+00  0.00000E+00  0.00000E+00    0.00000E+00  0.00000E+00 -0.30933E+03  0.37189E+01  0.13290E+01  0.39186E+00
  0.29991E-01  0.31008E+03    0.20492E-01  0.95076E-02 -0.30000E-01  0.00000E+00  0.00000E+00  0.00000E+00    0.00000E+00  0.00000E+00 -0.31000E+03  0.37030E+01  0.13083E+01  0.38247E+00
  0.30990E-01  0.31105E+03    0.21150E-01  0.98499E-02 -0.31000E-01  0.00000E+00  0.00000E+00  0.00000E+00    0.00000E+00  0.00000E+00 -0.31097E+03  0.37031E+01  0.12973E+01  0.37628E+00
  0.31990E-01  0.31171E+03    0.21806E-01  0.10194E-01 -0.32000E-01  0.00000E+00  0.00000E+00  0.00000E+00    0.00000E+00  0.00000E+00 -0.31163E+03  0.36859E+01  0.12735E+01  0.36699E+00
  0.32990E-01  0.31250E+03    0.22460E-01  0.10540E-01 -0.33000E-01  0.00000E+00  0.00000E+00  0.00000E+00    0.00000E+00  0.00000E+00 -0.31243E+03  0.36761E+01  0.12580E+01  0.35541E+00
  0.33990E-01  0.31314E+03    0.23111E-01  0.10889E-01 -0.34000E-01  0.00000E+00  0.00000E+00  0.00000E+00    0.00000E+00  0.00000E+00 -0.31306E+03  0.36603E+01  0.12179E+01  0.33512E+00
  0.34989E-01  0.31421E+03    0.23762E-01  0.11238E-01 -0.35000E-01  0.00000E+00  0.00000E+00  0.00000E+00    0.00000E+00  0.00000E+00 -0.31414E+03  0.36514E+01  0.12039E+01  0.32871E+00
  0.35989E-01  0.31473E+03    0.24410E-01  0.11590E-01 -0.36000E-01  0.00000E+00  0.00000E+00  0.00000E+00    0.00000E+00  0.00000E+00 -0.31466E+03  0.36354E+01  0.11710E+01  0.31330E+00
  0.36989E-01  0.31566E+03    0.25056E-01  0.11944E-01 -0.37000E-01  0.00000E+00  0.00000E+00  0.00000E+00    0.00000E+00  0.00000E+00 -0.31559E+03  0.36248E+01  0.11718E+01  0.32069E+00
  0.37989E-01  0.31646E+03    0.25701E-01  0.12299E-01 -0.38000E-01  0.00000E+00  0.00000E+00  0.00000E+00    0.00000E+00  0.00000E+00 -0.31639E+03  0.36134E+01  0.11497E+01  0.30960E+00
  0.38989E-01  0.31705E+03    0.26343E-01  0.12657E-01 -0.39000E-01  0.00000E+00  0.00000E+00  0.00000E+00    0.00000E+00  0.00000E+00 -0.31698E+03  0.35986E+01  0.11123E+01  0.29504E+00
  0.39988E-01  0.31799E+03    0.26984E-01  0.13016E-01 -0.40000E-01  0.00000E+00  0.00000E+00  0.00000E+00    0.00000E+00  0.00000E+00 -0.31792E+03  0.35950E+01  0.11086E+01  0.30831E+00
  0.40988E-01  0.31860E+03    0.27623E-01  0.13377E-01 -0.41000E-01  0.00000E+00  0.00000E+00  0.00000E+00    0.00000E+00  0.00000E+00 -0.31853E+03  0.35791E+01  0.10735E+01  0.29011E+00
  0.41988E-01  0.31952E+03    0.28260E-01  0.13740E-01 -0.42000E-01  0.00000E+00  0.00000E+00  0.00000E+00    0.00000E+00  0.00000E+00 -0.31946E+03  0.35825E+01  0.10740E+01  0.29194E+00
  0.42988E-01  0.32013E+03    0.28894E-01  0.14106E-01 -0.43000E-01  0.00000E+00  0.00000E+00  0.00000E+00    0.00000E+00  0.00000E+00 -0.32007E+03  0.35656E+01  0.10425E+01  0.27671E+00
  0.43988E-01  0.32102E+03    0.29528E-01  0.14472E-01 -0.44000E-01  0.00000E+00  0.00000E+00  0.00000E+00    0.00000E+00  0.00000E+00 -0.32096E+03  0.35587E+01  0.10423E+01  0.28043E+00
  0.44987E-01  0.32162E+03    0.30159E-01  0.14841E-01 -0.45000E-01  0.00000E+00  0.00000E+00  0.00000E+00    0.00000E+00  0.00000E+00 -0.32155E+03  0.35437E+01  0.10147E+01  0.26472E+00
  0.45987E-01  0.32255E+03    0.30788E-01  0.15212E-01 -0.46000E-01  0.00000E+00  0.00000E+00  0.00000E+00    0.00000E+00  0.00000E+00 -0.32248E+03  0.35405E+01  0.10143E+01  0.27429E+00
  0.46987E-01  0.32314E+03    0.31415E-01  0.15585E-01 -0.47000E-01  0.00000E+00  0.00000E+00  0.00000E+00    0.00000E+00  0.00000E+00 -0.32308E+03  0.35239E+01  0.98979E+00  0.25855E+00
  0.47987E-01  0.32407E+03    0.32040E-01  0.15960E-01 -0.48000E-01  0.00000E+00  0.00000E+00  0.00000E+00    0.00000E+00  0.00000E+00 -0.32401E+03  0.35012E+01  0.99356E+00  0.27586E+00
  0.48987E-01  0.32468E+03    0.32663E-01  0.16337E-01 -0.49000E-01  0.00000E+00  0.00000E+00  0.00000E+00    0.00000E+00  0.00000E+00 -0.32462E+03  0.34832E+01  0.97175E+00  0.26555E+00
  0.49986E-01  0.32563E+03    0.33285E-01  0.16715E-01 -0.50000E-01  0.00000E+00  0.00000E+00  0.00000E+00    0.00000E+00  0.00000E+00 -0.32557E+03  0.34862E+01  0.97390E+00  0.27084E+00
  0.50986E-01  0.32622E+03    0.33903E-01  0.17097E-01 -0.51000E-01  0.00000E+00  0.00000E+00  0.00000E+00    0.00000E+00  0.00000E+00 -0.32616E+03  0.34668E+01  0.95415E+00  0.25655E+00
  0.51986E-01  0.32716E+03    0.34520E-01  0.17480E-01 -0.52000E-01  0.00000E+00  0.00000E+00  0.00000E+00    0.00000E+00  0.00000E+00 -0.32710E+03  0.34524E+01  0.95655E+00  0.26477E+00
  0.52986E-01  0.32775E+03    0.35135E-01  0.17865E-01 -0.53000E-01  0.00000E+00  0.00000E+00  0.00000E+00    0.00000E+00  0.00000E+00 -0.32769E+03  0.34355E+01  0.93926E+00  0.25093E+00
  0.53986E-01  0.32847E+03    0.35748E-01  0.18252E-01 -0.54000E-01  0.00000E+00  0.00000E+00  0.00000E+00    0.00000E+00  0.00000E+00 -0.32842E+03  0.34237E+01  0.93210E+00  0.24625E+00
  0.54985E-01  0.32941E+03    0.36359E-01  0.18641E-01 -0.55000E-01  0.00000E+00  0.00000E+00  0.00000E+00    0.00000E+00  0.00000E+00 -0.32935E+03  0.34118E+01  0.93241E+00  0.24465E+00
  0.55985E-01  0.32998E+03    0.36968E-01  0.19032E-01 -0.56000E-01  0.00000E+00  0.00000E+00  0.00000E+00    0.00000E+00  0.00000E+00 -0.32992E+03  0.33951E+01  0.91862E+00  0.23239E+00
  0.56985E-01  0.33090E+03    0.37575E-01  0.19425E-01 -0.57000E-01  0.00000E+00  0.00000E+00  0.00000E+00    0.00000E+00  0.00000E+00 -0.33084E+03  0.33804E+01  0.91752E+00  0.22480E+00
  0.57985E-01  0.33147E+03    0.38180E-01  0.19820E-01 -0.58000E-01  0.00000E+00  0.00000E+00  0.00000E+00    0.00000E+00  0.00000E+00 -0.33141E+03  0.33640E+01  0.90418E+00  0.21258E+00
  0.58985E-01  0.33220E+03    0.38783E-01  0.20217E-01 -0.59000E-01  0.00000E+00  0.00000E+00  0.00000E+00    0.00000E+00  0.00000E+00 -0.33214E+03  0.33448E+01  0.89534E+00  0.20331E+00
  0.59985E-01  0.33310E+03    0.39384E-01  0.20616E-01 -0.60000E-01  0.00000E+00  0.00000E+00  0.00000E+00    0.00000E+00  0.00000E+00 -0.33304E+03  0.33491E+01  0.89401E+00  0.21340E+00
  0.60984E-01  0.33366E+03    0.39983E-01  0.21017E-01 -0.61000E-01  0.00000E+00  0.00000E+00  0.00000E+00    0.00000E+00  0.00000E+00 -0.33361E+03  0.33306E+01  0.88115E+00  0.20259E+00
  0.61984E-01  0.33438E+03    0.40580E-01  0.21420E-01 -0.62000E-01  0.00000E+00  0.00000E+00  0.00000E+00    0.00000E+00  0.00000E+00 -0.33432E+03  0.33194E+01  0.87501E+00  0.19862E+00
  0.62984E-01  0.33532E+03    0.41175E-01  0.21825E-01 -0.63000E-01  0.00000E+00  0.00000E+00  0.00000E+00    0.00000E+00  0.00000E+00 -0.33527E+03  0.33271E+01  0.87486E+00  0.20467E+00
  0.63984E-01  0.33590E+03    0.41768E-01  0.22232E-01 -0.64000E-01  0.00000E+00  0.00000E+00  0.00000E+00    0.00000E+00  0.00000E+00 -0.33584E+03  0.33071E+01  0.86341E+00  0.19258E+00
  0.64984E-01  0.33661E+03    0.42359E-01  0.22641E-01 -0.65000E-01  0.00000E+00  0.00000E+00  0.00000E+00    0.00000E+00  0.00000E+00 -0.33656E+03  0.32966E+01  0.86042E+00  0.18898E+00
  0.65984E-01  0.33734E+03    0.42949E-01  0.23051E-01 -0.66000E-01  0.00000E+00  0.00000E+00  0.00000E+00    0.00000E+00  0.00000E+00 -0.33729E+03  0.32764E+01  0.85876E+00  0.18084E+00
  0.66984E-01  0.33808E+03    0.43536E-01  0.23464E-01 -0.67000E-01  0.00000E+00  0.00000E+00  0.00000E+00    0.00000E+00  0.00000E+00 -0.33803E+03  0.32616E+01  0.83905E+00  0.16840E+00
  0.67983E-01  0.33878E+03    0.44122E-01  0.23878E-01 -0.68000E-01  0.00000E+00  0.00000E+00  0.00000E+00    0.00000E+00  0.00000E+00 -0.33873E+03  0.32547E+01  0.83681E+00  0.16890E+00
  0.68983E-01  0.33951E+03    0.44705E-01  0.24295E-01 -0.69000E-01  0.00000E+00  0.00000E+00  0.00000E+00    0.00000E+00  0.00000E+00 -0.33946E+03  0.32312E+01  0.81903E+00  0.16293E+00
  0.69983E-01  0.34021E+03    0.45287E-01  0.24713E-01 -0.70000E-01  0.00000E+00  0.00000E+00  0.00000E+00    0.00000E+00  0.00000E+00 -0.34017E+03  0.32242E+01  0.83427E+00  0.16058E+00
  0.70983E-01  0.34094E+03    0.45867E-01  0.25133E-01 -0.71000E-01  0.00000E+00  0.00000E+00  0.00000E+00    0.00000E+00  0.00000E+00 -0.34089E+03  0.32067E+01  0.82974E+00  0.15445E+00
  0.71983E-01  0.34165E+03    0.46446E-01  0.25554E-01 -0.72000E-01  0.00000E+00  0.00000E+00  0.00000E+00    0.00000E+00  0.00000E+00 -0.34160E+03  0.31971E+01  0.82239E+00  0.15110E+00
  0.72983E-01  0.34237E+03    0.47022E-01  0.25978E-01 -0.73000E-01  0.00000E+00  0.00000E+00  0.00000E+00    0.00000E+00  0.00000E+00 -0.34233E+03  0.31923E+01  0.81295E+00  0.15493E+00
  0.73983E-01  0.34332E+03    0.47597E-01  0.26403E-01 -0.74000E-01  0.00000E+00  0.00000E+00  0.00000E+00    0.00000E+00  0.00000E+00 -0.34327E+03  0.31622E+01  0.80922E+00  0.15909E+00
  0.74982E-01  0.34391E+03    0.48169E-01  0.26831E-01 -0.75000E-01  0.00000E+00  0.00000E+00  0.00000E+00    0.00000E+00  0.00000E+00 -0.34386E+03  0.31571E+01  0.79772E+00  0.14846E+00
  0.75982E-01  0.34468E+03    0.48739E-01  0.27261E-01 -0.76000E-01  0.00000E+00  0.00000E+00  0.00000E+00    0.00000E+00  0.00000E+00 -0.34464E+03  0.31278E+01  0.79230E+00  0.16818E+00
  0.76982E-01  0.34540E+03    0.49307E-01  0.27693E-01 -0.77000E-01  0.00000E+00  0.00000E+00  0.00000E+00    0.00000E+00  0.00000E+00 -0.34536E+03  0.31183E+01  0.78534E+00  0.15863E+00
  0.77982E-01  0.34611E+03    0.49873E-01  0.28127E-01 -0.78000E-01  0.00000E+00  0.00000E+00  0.00000E+00    0.00000E+00  0.00000E+00 -0.34607E+03  0.31069E+01  0.77902E+00  0.15443E+00
  0.78982E-01  0.34682E+03    0.50437E-01  0.28563E-01 -0.79000E-01  0.00000E+00  0.00000E+00  0.00000E+00    0.00000E+00  0.00000E+00 -0.34677E+03  0.30934E+01  0.77263E+00  0.15243E+00
  0.79982E-01  0.34759E+03    0.51000E-01  0.29000E-01 -0.80000E-01  0.00000E+00  0.00000E+00  0.00000E+00    0.00000E+00  0.00000E+00 -0.34754E+03  0.31196E+01  0.76777E+00  0.13712E+00
  0.80982E-01  0.34833E+03    0.51560E-01  0.29440E-01 -0.81000E-01  0.00000E+00  0.00000E+00  0.00000E+00    0.00000E+00  0.00000E+00 -0.34828E+03  0.30769E+01  0.76160E+00  0.13756E+00
  0.81981E-01  0.34904E+03    0.52119E-01  0.29881E-01 -0.82000E-01  0.00000E+00  0.00000E+00  0.00000E+00    0.00000E+00  0.00000E+00 -0.34899E+03  0.30684E+01  0.75581E+00  0.13477E+00
  0.82981E-01  0.34969E+03    0.52675E-01  0.30325E-01 -0.83000E-01  0.00000E+00  0.00000E+00  0.00000E+00    0.00000E+00  0.00000E+00 -0.34965E+03  0.30352E+01  0.74581E+00  0.12417E+00
  0.83981E-01  0.35045E+03    0.53230E-01  0.30770E-01 -0.84000E-01  0.00000E+00  0.00000E+00  0.00000E+00    0.00000E+00  0.00000E+00 -0.35040E+03  0.30402E+01  0.74488E+00  0.12836E+00
  0.84981E-01  0.35110E+03    0.53784E-01  0.31216E-01 -0.85000E-01  0.00000E+00  0.00000E+00  0.00000E+00    0.00000E+00  0.00000E+00 -0.35106E+03  0.30060E+01  0.73587E+00  0.11813E+00
  0.85981E-01  0.35181E+03    0.54336E-01  0.31664E-01 -0.86000E-01  0.00000E+00  0.00000E+00  0.00000E+00    0.00000E+00  0.00000E+00 -0.35177E+03  0.29896E+01  0.73144E+00  0.11443E+00
  0.86981E-01  0.35255E+03    0.54886E-01  0.32114E-01 -0.87000E-01  0.00000E+00  0.00000E+00  0.00000E+00    0.00000E+00  0.00000E+00 -0.35251E+03  0.29971E+01  0.73098E+00  0.11887E+00
  0.87981E-01  0.35320E+03    0.55435E-01  0.32565E-01 -0.88000E-01  0.00000E+00  0.00000E+00  0.00000E+00    0.00000E+00  0.00000E+00 -0.35316E+03  0.29678E+01  0.72238E+00  0.10788E+00
  0.88981E-01  0.35391E+03    0.55982E-01  0.33018E-01 -0.89000E-01  0.00000E+00  0.00000E+00  0.00000E+00    0.00000E+00  0.00000E+00 -0.35387E+03  0.29525E+01  0.71897E+00  0.10420E+00
  0.89981E-01  0.35460E+03    0.56527E-01  0.33473E-01 -0.90000E-01  0.00000E+00  0.00000E+00  0.00000E+00    0.00000E+00  0.00000E+00 -0.35457E+03  0.29471E+01  0.71784E+00  0.99142E-01
  0.90980E-01  0.35531E+03    0.57072E-01  0.33928E-01 -0.91000E-01  0.00000E+00  0.00000E+00  0.00000E+00    0.00000E+00  0.00000E+00 -0.35527E+03  0.29345E+01  0.71608E+00  0.96578E-01
  0.91980E-01  0.35594E+03    0.57614E-01  0.34386E-01 -0.92000E-01  0.00000E+00  0.00000E+00  0.00000E+00    0.00000E+00  0.00000E+00 -0.35590E+03  0.29040E+01  0.70240E+00  0.98763E-01
  0.92980E-01  0.35663E+03    0.58155E-01  0.34845E-01 -0.93000E-01  0.00000E+00  0.00000E+00  0.00000E+00    0.00000E+00  0.00000E+00 -0.35659E+03  0.28935E+01  0.70081E+00  0.82287E-01
  0.93980E-01  0.35735E+03    0.58695E-01  0.35305E-01 -0.94000E-01  0.00000E+00  0.00000E+00  0.00000E+00    0.00000E+00  0.00000E+00 -0.35732E+03  0.28602E+01  0.70008E+00  0.87713E-01
  0.94980E-01  0.35800E+03    0.59232E-01  0.35768E-01 -0.95000E-01  0.00000E+00  0.00000E+00  0.00000E+00    0.00000E+00  0.00000E+00 -0.35796E+03  0.28102E+01  0.69225E+00  0.77490E-01
  0.95980E-01  0.35870E+03    0.59769E-01  0.36231E-01 -0.96000E-01  0.00000E+00  0.00000E+00  0.00000E+00    0.00000E+00  0.00000E+00 -0.35867E+03  0.27921E+01  0.68619E+00  0.73469E-01
  0.96980E-01  0.35942E+03    0.60304E-01  0.36696E-01 -0.97000E-01  0.00000E+00  0.00000E+00  0.00000E+00    0.00000E+00  0.00000E+00 -0.35939E+03  0.27848E+01  0.68207E+00  0.74248E-01
  0.97980E-01  0.36012E+03    0.60837E-01  0.37163E-01 -0.98000E-01  0.00000E+00  0.00000E+00  0.00000E+00    0.00000E+00  0.00000E+00 -0.36008E+03  0.27611E+01  0.67589E+00  0.68632E-01
  0.98980E-01  0.36080E+03    0.61369E-01  0.37631E-01 -0.99000E-01  0.00000E+00  0.00000E+00  0.00000E+00    0.00000E+00  0.00000E+00 -0.36077E+03  0.27414E+01  0.67000E+00  0.64457E-01
  0.99980E-01  0.36149E+03    0.61899E-01  0.38101E-01 -0.10000E+00  0.00000E+00  0.00000E+00  0.00000E+00    0.00000E+00  0.00000E+00 -0.36146E+03  0.27210E+01  0.66418E+00  0.60649E-01
  0.10098E+00  0.36218E+03    0.62429E-01  0.38571E-01 -0.10100E+00  0.00000E+00  0.00000E+00  0.00000E+00    0.00000E+00  0.00000E+00 -0.36214E+03  0.27014E+01  0.65838E+00  0.55255E-01
  0.10198E+00  0.36286E+03    0.62956E-01  0.39044E-01 -0.10200E+00  0.00000E+00  0.00000E+00  0.00000E+00    0.00000E+00  0.00000E+00 -0.36283E+03  0.26818E+01  0.65254E+00  0.51131E-01
  0.10298E+00  0.36354E+03    0.63483E-01  0.39517E-01 -0.10300E+00  0.00000E+00  0.00000E+00  0.00000E+00    0.00000E+00  0.00000E+00 -0.36351E+03  0.26625E+01  0.64688E+00  0.47059E-01
  0.10398E+00  0.36422E+03    0.64008E-01  0.39992E-01 -0.10400E+00  0.00000E+00  0.00000E+00  0.00000E+00    0.00000E+00  0.00000E+00 -0.36419E+03  0.26431E+01  0.64048E+00  0.42793E-01
