          %Evm          Svm            E11          E22          E33          E23          E13          E12         SCAU11       SCAU22       SCAU33       SCAU23       SCAU13       SCAU12      TEMP
  0.00000E+00  0.26730E+03    0.00000E+00  0.00000E+00  0.00000E+00  0.00000E+00  0.00000E+00  0.00000E+00    0.00000E+00 -0.26716E+03  0.00000E+00  0.44677E+01 -0.20042E+01 -0.11971E+01
  0.99947E-03  0.26795E+03    0.78935E-03 -0.10000E-02  0.21065E-03  0.00000E+00  0.00000E+00  0.00000E+00    0.00000E+00 -0.26781E+03  0.00000E+00  0.44570E+01 -0.20616E+01 -0.12319E+01
  0.19989E-02  0.26879E+03    0.15805E-02 -0.20000E-02  0.41949E-03  0.00000E+00  0.00000E+00  0.00000E+00    0.00000E+00 -0.26865E+03  0.00000E+00  0.44304E+01 -0.20155E+01 -0.12527E+01
  0.29984E-02  0.26976E+03    0.23707E-02 -0.30000E-02  0.62929E-03  0.00000E+00  0.00000E+00  0.00000E+00    0.00000E+00 -0.26962E+03  0.00000E+00  0.44180E+01 -0.20154E+01 -0.12430E+01
  0.39979E-02  0.27077E+03    0.31587E-02 -0.40000E-02  0.84133E-03  0.00000E+00  0.00000E+00  0.00000E+00    0.00000E+00 -0.27063E+03  0.00000E+00  0.44085E+01 -0.20118E+01 -0.12586E+01
  0.49974E-02  0.27157E+03    0.39442E-02 -0.50000E-02  0.10558E-02  0.00000E+00  0.00000E+00  0.00000E+00    0.00000E+00 -0.27143E+03  0.00000E+00  0.43927E+01 -0.20057E+01 -0.12718E+01
  0.59969E-02  0.27239E+03    0.47272E-02 -0.60000E-02  0.12728E-02  0.00000E+00  0.00000E+00  0.00000E+00    0.00000E+00 -0.27225E+03  0.00000E+00  0.43775E+01 -0.19998E+01 -0.12841E+01
  0.69964E-02  0.27320E+03    0.55078E-02 -0.70000E-02  0.14922E-02  0.00000E+00  0.00000E+00  0.00000E+00    0.00000E+00 -0.27307E+03  0.00000E+00  0.43610E+01 -0.19934E+01 -0.12952E+01
  0.79959E-02  0.27401E+03    0.62860E-02 -0.80000E-02  0.17140E-02  0.00000E+00  0.00000E+00  0.00000E+00    0.00000E+00 -0.27388E+03  0.00000E+00  0.43431E+01 -0.19880E+01 -0.13052E+01
  0.89954E-02  0.27485E+03    0.70616E-02 -0.90000E-02  0.19384E-02  0.00000E+00  0.00000E+00  0.00000E+00    0.00000E+00 -0.27471E+03  0.00000E+00  0.43225E+01 -0.19748E+01 -0.13140E+01
  0.99949E-02  0.27570E+03    0.78348E-02 -0.10000E-01  0.21652E-02  0.00000E+00  0.00000E+00  0.00000E+00    0.00000E+00 -0.27557E+03  0.00000E+00  0.43075E+01 -0.19606E+01 -0.13208E+01
  0.10994E-01  0.27655E+03    0.86053E-02 -0.11000E-01  0.23947E-02  0.00000E+00  0.00000E+00  0.00000E+00    0.00000E+00 -0.27642E+03  0.00000E+00  0.43010E+01 -0.19448E+01 -0.13308E+01
  0.11994E-01  0.27737E+03    0.93731E-02 -0.12000E-01  0.26269E-02  0.00000E+00  0.00000E+00  0.00000E+00    0.00000E+00 -0.27725E+03  0.00000E+00  0.42848E+01 -0.19407E+01 -0.13368E+01
  0.12993E-01  0.27822E+03    0.10138E-01 -0.13000E-01  0.28616E-02  0.00000E+00  0.00000E+00  0.00000E+00    0.00000E+00 -0.27809E+03  0.00000E+00  0.42736E+01 -0.19410E+01 -0.13404E+01
  0.13993E-01  0.27895E+03    0.10901E-01 -0.14000E-01  0.30990E-02  0.00000E+00  0.00000E+00  0.00000E+00    0.00000E+00 -0.27882E+03  0.00000E+00  0.42620E+01 -0.19344E+01 -0.13567E+01
  0.14993E-01  0.27986E+03    0.11662E-01 -0.15000E-01  0.33383E-02  0.00000E+00  0.00000E+00  0.00000E+00    0.00000E+00 -0.27973E+03  0.00000E+00  0.42465E+01 -0.19383E+01 -0.13406E+01
  0.15992E-01  0.28067E+03    0.12419E-01 -0.16000E-01  0.35808E-02  0.00000E+00  0.00000E+00  0.00000E+00    0.00000E+00 -0.28054E+03  0.00000E+00  0.42318E+01 -0.19322E+01 -0.13385E+01
  0.16992E-01  0.28143E+03    0.13174E-01 -0.17000E-01  0.38260E-02  0.00000E+00  0.00000E+00  0.00000E+00    0.00000E+00 -0.28130E+03  0.00000E+00  0.42128E+01 -0.19373E+01 -0.13532E+01
  0.17991E-01  0.28226E+03    0.13927E-01 -0.18000E-01  0.40732E-02  0.00000E+00  0.00000E+00  0.00000E+00    0.00000E+00 -0.28214E+03  0.00000E+00  0.41929E+01 -0.19290E+01 -0.13368E+01
  0.18991E-01  0.28311E+03    0.14677E-01 -0.19000E-01  0.43231E-02  0.00000E+00  0.00000E+00  0.00000E+00    0.00000E+00 -0.28299E+03  0.00000E+00  0.41761E+01 -0.19221E+01 -0.13281E+01
  0.19990E-01  0.28386E+03    0.15424E-01 -0.20000E-01  0.45761E-02  0.00000E+00  0.00000E+00  0.00000E+00    0.00000E+00 -0.28374E+03  0.00000E+00  0.41784E+01 -0.19276E+01 -0.13353E+01
  0.20990E-01  0.28470E+03    0.16169E-01 -0.21000E-01  0.48311E-02  0.00000E+00  0.00000E+00  0.00000E+00    0.00000E+00 -0.28458E+03  0.00000E+00  0.41684E+01 -0.19101E+01 -0.13099E+01
  0.21990E-01  0.28558E+03    0.16911E-01 -0.22000E-01  0.50890E-02  0.00000E+00  0.00000E+00  0.00000E+00    0.00000E+00 -0.28547E+03  0.00000E+00  0.41380E+01 -0.18897E+01 -0.12932E+01
  0.22989E-01  0.28635E+03    0.17650E-01 -0.23000E-01  0.53501E-02  0.00000E+00  0.00000E+00  0.00000E+00    0.00000E+00 -0.28623E+03  0.00000E+00  0.41359E+01 -0.18748E+01 -0.12958E+01
  0.23989E-01  0.28722E+03    0.18387E-01 -0.24000E-01  0.56132E-02  0.00000E+00  0.00000E+00  0.00000E+00    0.00000E+00 -0.28711E+03  0.00000E+00  0.41145E+01 -0.18696E+01 -0.12794E+01
  0.24988E-01  0.28794E+03    0.19120E-01 -0.25000E-01  0.58795E-02  0.00000E+00  0.00000E+00  0.00000E+00    0.00000E+00 -0.28782E+03  0.00000E+00  0.41097E+01 -0.18673E+01 -0.12881E+01
  0.25988E-01  0.28879E+03    0.19852E-01 -0.26000E-01  0.61479E-02  0.00000E+00  0.00000E+00  0.00000E+00    0.00000E+00 -0.28868E+03  0.00000E+00  0.40878E+01 -0.18592E+01 -0.12686E+01
  0.26987E-01  0.28944E+03    0.20581E-01 -0.27000E-01  0.64194E-02  0.00000E+00  0.00000E+00  0.00000E+00    0.00000E+00 -0.28932E+03  0.00000E+00  0.40794E+01 -0.18569E+01 -0.12764E+01
  0.27987E-01  0.29036E+03    0.21307E-01 -0.28000E-01  0.66930E-02  0.00000E+00  0.00000E+00  0.00000E+00    0.00000E+00 -0.29024E+03  0.00000E+00  0.40601E+01 -0.18508E+01 -0.12609E+01
  0.28987E-01  0.29113E+03    0.22030E-01 -0.29000E-01  0.69698E-02  0.00000E+00  0.00000E+00  0.00000E+00    0.00000E+00 -0.29102E+03  0.00000E+00  0.40344E+01 -0.18384E+01 -0.12729E+01
  0.29986E-01  0.29197E+03    0.22751E-01 -0.30000E-01  0.72487E-02  0.00000E+00  0.00000E+00  0.00000E+00    0.00000E+00 -0.29186E+03  0.00000E+00  0.40129E+01 -0.18310E+01 -0.12555E+01
  0.30986E-01  0.29276E+03    0.23469E-01 -0.31000E-01  0.75308E-02  0.00000E+00  0.00000E+00  0.00000E+00    0.00000E+00 -0.29265E+03  0.00000E+00  0.39718E+01 -0.18352E+01 -0.12720E+01
  0.31986E-01  0.29360E+03    0.24185E-01 -0.32000E-01  0.78151E-02  0.00000E+00  0.00000E+00  0.00000E+00    0.00000E+00 -0.29349E+03  0.00000E+00  0.39541E+01 -0.18255E+01 -0.12551E+01
  0.32985E-01  0.29439E+03    0.24897E-01 -0.33000E-01  0.81027E-02  0.00000E+00  0.00000E+00  0.00000E+00    0.00000E+00 -0.29429E+03  0.00000E+00  0.39476E+01 -0.18343E+01 -0.12649E+01
  0.33985E-01  0.29525E+03    0.25607E-01 -0.34000E-01  0.83926E-02  0.00000E+00  0.00000E+00  0.00000E+00    0.00000E+00 -0.29515E+03  0.00000E+00  0.39189E+01 -0.18173E+01 -0.12490E+01
  0.34985E-01  0.29578E+03    0.26314E-01 -0.35000E-01  0.86859E-02  0.00000E+00  0.00000E+00  0.00000E+00    0.00000E+00 -0.29568E+03  0.00000E+00  0.38978E+01 -0.18114E+01 -0.12524E+01
  0.35984E-01  0.29684E+03    0.27019E-01 -0.36000E-01  0.89811E-02  0.00000E+00  0.00000E+00  0.00000E+00    0.00000E+00 -0.29674E+03  0.00000E+00  0.38871E+01 -0.18164E+01 -0.12373E+01
  0.36984E-01  0.29763E+03    0.27720E-01 -0.37000E-01  0.92797E-02  0.00000E+00  0.00000E+00  0.00000E+00    0.00000E+00 -0.29753E+03  0.00000E+00  0.38741E+01 -0.18129E+01 -0.12467E+01
  0.37984E-01  0.29838E+03    0.28419E-01 -0.38000E-01  0.95805E-02  0.00000E+00  0.00000E+00  0.00000E+00    0.00000E+00 -0.29828E+03  0.00000E+00  0.38564E+01 -0.18049E+01 -0.12403E+01
  0.38983E-01  0.29929E+03    0.29116E-01 -0.39000E-01  0.98837E-02  0.00000E+00  0.00000E+00  0.00000E+00    0.00000E+00 -0.29919E+03  0.00000E+00  0.38219E+01 -0.18000E+01 -0.12275E+01
  0.39983E-01  0.29983E+03    0.29810E-01 -0.40000E-01  0.10190E-01  0.00000E+00  0.00000E+00  0.00000E+00    0.00000E+00 -0.29973E+03  0.00000E+00  0.37991E+01 -0.17913E+01 -0.12245E+01
  0.40983E-01  0.30086E+03    0.30501E-01 -0.41000E-01  0.10499E-01  0.00000E+00  0.00000E+00  0.00000E+00    0.00000E+00 -0.30077E+03  0.00000E+00  0.37821E+01 -0.17839E+01 -0.12143E+01
  0.41982E-01  0.30142E+03    0.31189E-01 -0.42000E-01  0.10811E-01  0.00000E+00  0.00000E+00  0.00000E+00    0.00000E+00 -0.30133E+03  0.00000E+00  0.37402E+01 -0.17904E+01 -0.12109E+01
  0.42982E-01  0.30236E+03    0.31875E-01 -0.43000E-01  0.11125E-01  0.00000E+00  0.00000E+00  0.00000E+00    0.00000E+00 -0.30227E+03  0.00000E+00  0.37432E+01 -0.17812E+01 -0.12089E+01
  0.43982E-01  0.30324E+03    0.32559E-01 -0.44000E-01  0.11441E-01  0.00000E+00  0.00000E+00  0.00000E+00    0.00000E+00 -0.30315E+03  0.00000E+00  0.37134E+01 -0.17641E+01 -0.11878E+01
  0.44981E-01  0.30379E+03    0.33239E-01 -0.45000E-01  0.11761E-01  0.00000E+00  0.00000E+00  0.00000E+00    0.00000E+00 -0.30370E+03  0.00000E+00  0.36895E+01 -0.17508E+01 -0.11730E+01
  0.45981E-01  0.30473E+03    0.33918E-01 -0.46000E-01  0.12082E-01  0.00000E+00  0.00000E+00  0.00000E+00    0.00000E+00 -0.30464E+03  0.00000E+00  0.36634E+01 -0.17542E+01 -0.11741E+01
  0.46981E-01  0.30569E+03    0.34594E-01 -0.47000E-01  0.12406E-01  0.00000E+00  0.00000E+00  0.00000E+00    0.00000E+00 -0.30560E+03  0.00000E+00  0.36468E+01 -0.17413E+01 -0.11583E+01
  0.47980E-01  0.30617E+03    0.35266E-01 -0.48000E-01  0.12734E-01  0.00000E+00  0.00000E+00  0.00000E+00    0.00000E+00 -0.30609E+03  0.00000E+00  0.36082E+01 -0.17304E+01 -0.11346E+01
  0.48980E-01  0.30710E+03    0.35937E-01 -0.49000E-01  0.13063E-01  0.00000E+00  0.00000E+00  0.00000E+00    0.00000E+00 -0.30702E+03  0.00000E+00  0.35975E+01 -0.17255E+01 -0.11320E+01
  0.49980E-01  0.30791E+03    0.36605E-01 -0.50000E-01  0.13395E-01  0.00000E+00  0.00000E+00  0.00000E+00    0.00000E+00 -0.30783E+03  0.00000E+00  0.35907E+01 -0.17033E+01 -0.11187E+01
  0.50980E-01  0.30888E+03    0.37271E-01 -0.51000E-01  0.13729E-01  0.00000E+00  0.00000E+00  0.00000E+00    0.00000E+00 -0.30879E+03  0.00000E+00  0.35751E+01 -0.16917E+01 -0.11000E+01
  0.51979E-01  0.30935E+03    0.37933E-01 -0.52000E-01  0.14067E-01  0.00000E+00  0.00000E+00  0.00000E+00    0.00000E+00 -0.30927E+03  0.00000E+00  0.35472E+01 -0.16728E+01 -0.10708E+01
  0.52979E-01  0.31026E+03    0.38594E-01 -0.53000E-01  0.14406E-01  0.00000E+00  0.00000E+00  0.00000E+00    0.00000E+00 -0.31018E+03  0.00000E+00  0.35403E+01 -0.16706E+01 -0.10680E+01
  0.53979E-01  0.31104E+03    0.39252E-01 -0.54000E-01  0.14748E-01  0.00000E+00  0.00000E+00  0.00000E+00    0.00000E+00 -0.31097E+03  0.00000E+00  0.35221E+01 -0.16582E+01 -0.10517E+01
  0.54979E-01  0.31182E+03    0.39907E-01 -0.55000E-01  0.15093E-01  0.00000E+00  0.00000E+00  0.00000E+00    0.00000E+00 -0.31174E+03  0.00000E+00  0.35041E+01 -0.16451E+01 -0.10350E+01
  0.55978E-01  0.31261E+03    0.40560E-01 -0.56000E-01  0.15440E-01  0.00000E+00  0.00000E+00  0.00000E+00    0.00000E+00 -0.31253E+03  0.00000E+00  0.34938E+01 -0.16314E+01 -0.10184E+01
  0.56978E-01  0.31339E+03    0.41210E-01 -0.57000E-01  0.15790E-01  0.00000E+00  0.00000E+00  0.00000E+00    0.00000E+00 -0.31331E+03  0.00000E+00  0.34732E+01 -0.16172E+01 -0.10029E+01
  0.57978E-01  0.31416E+03    0.41858E-01 -0.58000E-01  0.16142E-01  0.00000E+00  0.00000E+00  0.00000E+00    0.00000E+00 -0.31408E+03  0.00000E+00  0.34542E+01 -0.16030E+01 -0.98844E+00
  0.58978E-01  0.31493E+03    0.42504E-01 -0.59000E-01  0.16496E-01  0.00000E+00  0.00000E+00  0.00000E+00    0.00000E+00 -0.31486E+03  0.00000E+00  0.34343E+01 -0.15890E+01 -0.97487E+00
  0.59977E-01  0.31570E+03    0.43147E-01 -0.60000E-01  0.16853E-01  0.00000E+00  0.00000E+00  0.00000E+00    0.00000E+00 -0.31563E+03  0.00000E+00  0.34131E+01 -0.15751E+01 -0.96252E+00
  0.60977E-01  0.31647E+03    0.43787E-01 -0.61000E-01  0.17213E-01  0.00000E+00  0.00000E+00  0.00000E+00    0.00000E+00 -0.31640E+03  0.00000E+00  0.33917E+01 -0.15615E+01 -0.95110E+00
  0.61977E-01  0.31724E+03    0.44425E-01 -0.62000E-01  0.17575E-01  0.00000E+00  0.00000E+00  0.00000E+00    0.00000E+00 -0.31717E+03  0.00000E+00  0.33719E+01 -0.15500E+01 -0.93978E+00
  0.62977E-01  0.31802E+03    0.45061E-01 -0.63000E-01  0.17939E-01  0.00000E+00  0.00000E+00  0.00000E+00    0.00000E+00 -0.31795E+03  0.00000E+00  0.33473E+01 -0.15388E+01 -0.92960E+00
  0.63977E-01  0.31878E+03    0.45694E-01 -0.64000E-01  0.18306E-01  0.00000E+00  0.00000E+00  0.00000E+00    0.00000E+00 -0.31872E+03  0.00000E+00  0.33278E+01 -0.15265E+01 -0.91929E+00
  0.64976E-01  0.31955E+03    0.46325E-01 -0.65000E-01  0.18675E-01  0.00000E+00  0.00000E+00  0.00000E+00    0.00000E+00 -0.31948E+03  0.00000E+00  0.33086E+01 -0.15149E+01 -0.90894E+00
  0.65976E-01  0.32031E+03    0.46953E-01 -0.66000E-01  0.19047E-01  0.00000E+00  0.00000E+00  0.00000E+00    0.00000E+00 -0.32025E+03  0.00000E+00  0.32924E+01 -0.15043E+01 -0.89906E+00
  0.66976E-01  0.32108E+03    0.47579E-01 -0.67000E-01  0.19421E-01  0.00000E+00  0.00000E+00  0.00000E+00    0.00000E+00 -0.32101E+03  0.00000E+00  0.32755E+01 -0.14943E+01 -0.88905E+00
  0.67976E-01  0.32184E+03    0.48203E-01 -0.68000E-01  0.19797E-01  0.00000E+00  0.00000E+00  0.00000E+00    0.00000E+00 -0.32178E+03  0.00000E+00  0.32586E+01 -0.14852E+01 -0.87822E+00
  0.68976E-01  0.32262E+03    0.48824E-01 -0.69000E-01  0.20176E-01  0.00000E+00  0.00000E+00  0.00000E+00    0.00000E+00 -0.32255E+03  0.00000E+00  0.32369E+01 -0.14739E+01 -0.86699E+00
  0.69975E-01  0.32327E+03    0.49443E-01 -0.70000E-01  0.20557E-01  0.00000E+00  0.00000E+00  0.00000E+00    0.00000E+00 -0.32321E+03  0.00000E+00  0.32136E+01 -0.14599E+01 -0.84726E+00
  0.70975E-01  0.32414E+03    0.50059E-01 -0.71000E-01  0.20941E-01  0.00000E+00  0.00000E+00  0.00000E+00    0.00000E+00 -0.32408E+03  0.00000E+00  0.32040E+01 -0.14563E+01 -0.84497E+00
  0.71975E-01  0.32494E+03    0.50674E-01 -0.72000E-01  0.21326E-01  0.00000E+00  0.00000E+00  0.00000E+00    0.00000E+00 -0.32488E+03  0.00000E+00  0.31742E+01 -0.14370E+01 -0.83131E+00
  0.72975E-01  0.32570E+03    0.51286E-01 -0.73000E-01  0.21714E-01  0.00000E+00  0.00000E+00  0.00000E+00    0.00000E+00 -0.32565E+03  0.00000E+00  0.31616E+01 -0.14280E+01 -0.82027E+00
  0.73975E-01  0.32636E+03    0.51895E-01 -0.74000E-01  0.22105E-01  0.00000E+00  0.00000E+00  0.00000E+00    0.00000E+00 -0.32630E+03  0.00000E+00  0.31405E+01 -0.14163E+01 -0.80172E+00
  0.74974E-01  0.32722E+03    0.52502E-01 -0.75000E-01  0.22498E-01  0.00000E+00  0.00000E+00  0.00000E+00    0.00000E+00 -0.32717E+03  0.00000E+00  0.31320E+01 -0.14130E+01 -0.79931E+00
  0.75974E-01  0.32789E+03    0.53107E-01 -0.76000E-01  0.22893E-01  0.00000E+00  0.00000E+00  0.00000E+00    0.00000E+00 -0.32783E+03  0.00000E+00  0.31122E+01 -0.14025E+01 -0.78096E+00
  0.76974E-01  0.32875E+03    0.53710E-01 -0.77000E-01  0.23290E-01  0.00000E+00  0.00000E+00  0.00000E+00    0.00000E+00 -0.32869E+03  0.00000E+00  0.31038E+01 -0.13994E+01 -0.77837E+00
  0.77974E-01  0.32941E+03    0.54311E-01 -0.78000E-01  0.23689E-01  0.00000E+00  0.00000E+00  0.00000E+00    0.00000E+00 -0.32936E+03  0.00000E+00  0.30849E+01 -0.13894E+01 -0.76026E+00
  0.78974E-01  0.33027E+03    0.54909E-01 -0.79000E-01  0.24091E-01  0.00000E+00  0.00000E+00  0.00000E+00    0.00000E+00 -0.33022E+03  0.00000E+00  0.30769E+01 -0.13863E+01 -0.75779E+00
  0.79974E-01  0.33093E+03    0.55505E-01 -0.80000E-01  0.24495E-01  0.00000E+00  0.00000E+00  0.00000E+00    0.00000E+00 -0.33088E+03  0.00000E+00  0.30577E+01 -0.13769E+01 -0.73900E+00
  0.80973E-01  0.33170E+03    0.56098E-01 -0.81000E-01  0.24902E-01  0.00000E+00  0.00000E+00  0.00000E+00    0.00000E+00 -0.33164E+03  0.00000E+00  0.30439E+01 -0.13708E+01 -0.72766E+00
  0.81973E-01  0.33255E+03    0.56690E-01 -0.82000E-01  0.25310E-01  0.00000E+00  0.00000E+00  0.00000E+00    0.00000E+00 -0.33250E+03  0.00000E+00  0.30365E+01 -0.13680E+01 -0.72480E+00
  0.82973E-01  0.33321E+03    0.57279E-01 -0.83000E-01  0.25721E-01  0.00000E+00  0.00000E+00  0.00000E+00    0.00000E+00 -0.33316E+03  0.00000E+00  0.30232E+01 -0.13592E+01 -0.70714E+00
  0.83973E-01  0.33398E+03    0.57867E-01 -0.84000E-01  0.26133E-01  0.00000E+00  0.00000E+00  0.00000E+00    0.00000E+00 -0.33393E+03  0.00000E+00  0.30139E+01 -0.13532E+01 -0.69652E+00
  0.84973E-01  0.33474E+03    0.58452E-01 -0.85000E-01  0.26548E-01  0.00000E+00  0.00000E+00  0.00000E+00    0.00000E+00 -0.33469E+03  0.00000E+00  0.30047E+01 -0.13468E+01 -0.68600E+00
  0.85973E-01  0.33558E+03    0.59035E-01 -0.86000E-01  0.26965E-01  0.00000E+00  0.00000E+00  0.00000E+00    0.00000E+00 -0.33553E+03  0.00000E+00  0.30001E+01 -0.13440E+01 -0.68294E+00
  0.86972E-01  0.33625E+03    0.59615E-01 -0.87000E-01  0.27385E-01  0.00000E+00  0.00000E+00  0.00000E+00    0.00000E+00 -0.33620E+03  0.00000E+00  0.29905E+01 -0.13358E+01 -0.66705E+00
  0.87972E-01  0.33701E+03    0.60193E-01 -0.88000E-01  0.27807E-01  0.00000E+00  0.00000E+00  0.00000E+00    0.00000E+00 -0.33696E+03  0.00000E+00  0.29849E+01 -0.13297E+01 -0.65738E+00
  0.88972E-01  0.33777E+03    0.60770E-01 -0.89000E-01  0.28230E-01  0.00000E+00  0.00000E+00  0.00000E+00    0.00000E+00 -0.33772E+03  0.00000E+00  0.29799E+01 -0.13233E+01 -0.64759E+00
  0.89972E-01  0.33853E+03    0.61344E-01 -0.90000E-01  0.28656E-01  0.00000E+00  0.00000E+00  0.00000E+00    0.00000E+00 -0.33848E+03  0.00000E+00  0.29681E+01 -0.13165E+01 -0.63718E+00
  0.90972E-01  0.33928E+03    0.61916E-01 -0.91000E-01  0.29084E-01  0.00000E+00  0.00000E+00  0.00000E+00    0.00000E+00 -0.33923E+03  0.00000E+00  0.29597E+01 -0.13098E+01 -0.62761E+00
  0.91972E-01  0.34004E+03    0.62486E-01 -0.92000E-01  0.29514E-01  0.00000E+00  0.00000E+00  0.00000E+00    0.00000E+00 -0.33999E+03  0.00000E+00  0.29528E+01 -0.13029E+01 -0.61823E+00
  0.92972E-01  0.34079E+03    0.63054E-01 -0.93000E-01  0.29946E-01  0.00000E+00  0.00000E+00  0.00000E+00    0.00000E+00 -0.34074E+03  0.00000E+00  0.29460E+01 -0.12957E+01 -0.60888E+00
  0.93971E-01  0.34154E+03    0.63620E-01 -0.94000E-01  0.30380E-01  0.00000E+00  0.00000E+00  0.00000E+00    0.00000E+00 -0.34149E+03  0.00000E+00  0.29398E+01 -0.12883E+01 -0.60025E+00
  0.94971E-01  0.34229E+03    0.64184E-01 -0.95000E-01  0.30816E-01  0.00000E+00  0.00000E+00  0.00000E+00    0.00000E+00 -0.34224E+03  0.00000E+00  0.29379E+01 -0.12819E+01 -0.59170E+00
  0.95971E-01  0.34304E+03    0.64746E-01 -0.96000E-01  0.31254E-01  0.00000E+00  0.00000E+00  0.00000E+00    0.00000E+00 -0.34299E+03  0.00000E+00  0.29400E+01 -0.12766E+01 -0.58293E+00
  0.96971E-01  0.34379E+03    0.65306E-01 -0.97000E-01  0.31694E-01  0.00000E+00  0.00000E+00  0.00000E+00    0.00000E+00 -0.34374E+03  0.00000E+00  0.29403E+01 -0.12705E+01 -0.57395E+00
  0.97971E-01  0.34453E+03    0.65863E-01 -0.98000E-01  0.32137E-01  0.00000E+00  0.00000E+00  0.00000E+00    0.00000E+00 -0.34449E+03  0.00000E+00  0.29406E+01 -0.12645E+01 -0.56526E+00
  0.98971E-01  0.34528E+03    0.66419E-01 -0.99000E-01  0.32581E-01  0.00000E+00  0.00000E+00  0.00000E+00    0.00000E+00 -0.34523E+03  0.00000E+00  0.29412E+01 -0.12584E+01 -0.55668E+00
  0.99971E-01  0.34602E+03    0.66973E-01 -0.10000E+00  0.33027E-01  0.00000E+00  0.00000E+00  0.00000E+00    0.00000E+00 -0.34597E+03  0.00000E+00  0.29419E+01 -0.12523E+01 -0.54816E+00
  0.10097E+00  0.34676E+03    0.67524E-01 -0.10100E+00  0.33476E-01  0.00000E+00  0.00000E+00  0.00000E+00    0.00000E+00 -0.34671E+03  0.00000E+00  0.29429E+01 -0.12461E+01 -0.53970E+00
  0.10197E+00  0.34749E+03    0.68074E-01 -0.10200E+00  0.33926E-01  0.00000E+00  0.00000E+00  0.00000E+00    0.00000E+00 -0.34745E+03  0.00000E+00  0.29444E+01 -0.12398E+01 -0.53123E+00
  0.10297E+00  0.34822E+03    0.68621E-01 -0.10300E+00  0.34379E-01  0.00000E+00  0.00000E+00  0.00000E+00    0.00000E+00 -0.34818E+03  0.00000E+00  0.29463E+01 -0.12267E+01 -0.51874E+00
  0.10397E+00  0.34896E+03    0.69167E-01 -0.10400E+00  0.34833E-01  0.00000E+00  0.00000E+00  0.00000E+00    0.00000E+00 -0.34892E+03  0.00000E+00  0.29475E+01 -0.12268E+01 -0.51430E+00
